ASME BPVG,ILA-2025 SA-370
a TABLE 5 Approximate Hardness Conversion Numbers for Austenitic Steels (Rockwell B to other Hardness Numbers)
[ Rockwell B Rockwell Superficial Hardness
} , Brinell Hardness, Rockwell A Scale, 30T Scale, 45T Scale,
| Scale, 100 kgf Load, Brinell Indentation 3000 kgf Load, 60 kof Load, 15T Scale, 30 kat Load 45 kaf Load
‘Ace Diameter, mm 10 mm Ball Diamond Penetrator 15 kgf Load, Vaein. ( Vagei :
in. (1.588 mm) Ball jin. (1.588 mm) Ball Yie-in. 88 mm) “e-in. (1.588 mm) Ball
100 3.79 256 61.5 91.5 80.4 70.2
99 3.85 248 60.9 91.2 79.7 69.2
98 3.91 240 60.3 90.8 79.0 68.2
97 3.96 233 59.7 90.4 78.3 67.2
96 4.02 226 59.1 90.1 77.7 66.1
95 4.08 219 58.5 89.7 77.0 65.1
94 4.14 213 58.0 89.3 76.3 64.1
93 4.20 207 57.4 88.9 75.6 63.1
92 4.24 202 56.8 88.6 74.9 62.1
91 4.30 197 56.2 88.2 74.2 61.1
90 4.35 192 55.6 87.8 73.5 60.1
89 4.40 187 55.0 87.5 72.8 59.0
— 88 4.45 183 54.5 87.1 72.1 58.0
ae 87 4.51 178 53.9 86.7 71.4 57.0
\ 86 4.55 174 53.3 86.4 70.7 56.0
85 4.60 170 52.7 86.0 70.0 55.0
84 4.65 167 52.1 85.6 69.3 54.0
83 4.70 163 51.5 85.2 68.6 52.9
82 4.74 160 50.9 84.9 67.9 51.9
81 4.79 156 50.4 84.5 67.2 50.9
80 4.84 153 49.8 84.1 66.5 49.9
hardness numbers shall be followed by the symbol HBW, and display, printer, or other device. This is an arbitrary number
be supplemented by an index indicating the test conditions in = which increases with increasing hardness. The scales most
the following order: frequently used are as follows:
17.5.1.1 Diameter of the ball, mm, Scale menetrator Maior Minor
17.5.1.2 A value representing the applied load, kgf, and, Symbol — Load, kof Load, kaf
| 17.5.1.3 The applied force dwell time, s, if other than 10 to 3 Vre-in, tungsten carbide ball 400 0
| I5 s. C Diamond brale 150 10
17.5.1.4 The only exception to the above requirement is for , ,
the HBW 10/3000 * ale an ena 10 to 15s ‘eal time is used 18.1.2 Rockwell superficial hardness machines are used for
Only in the case of this one Brinell hardness scale may the the testing of very thin steel or thin surface layers. Loads of 15,
designation be reported simply as HBW 30, or 45 kgf are applied on a tungsten carbide (or a hardened
17.5.1.5 Examples: 220 HBW = Brinell hardness of 220 steel) ball or diamond penetrator, to cover the same range of
determined with a ball of 10 mm diameter and with a test force hardness values as for the heavier loads. Use of a hardened
of 3000 kef applied for 10 to 15 s; 350 HBW 5/1500 = Brinell steel ball is permitted only for testing thin sheet tin mill
hardness of 350 determined with a ball of 5 mm diameter and Products as found in Specifications A623 and A623M using
with a test force of 1500 kef applied for 10 to 15 s. HRIST and HR30T scales with a diamond spot anvil. (Testing
17.6 Detailed Procedure—For detailed requirements of this of this product using a tungsten carbide indenter may give
test reference shall be ma de to the latest revision of Test significantly different results as compared to historical test data
Metho d E10 obtained using a hardened steel ball.) The superficial hardness
scales are as follows:
18. Rockwell Test Scale Major Minor
oo 181 D — Symbol! Penetrator Load, kgf Load, kof
.1 Description: |
18.1.1 In this test a hardness value is obtained by determin- sor yen pingsien al or ee mn so :
. . . . i6-IN. TUNGSTEN Carpi or Stee! Da
ing the depth of penetration of a diamond point or a tungsten AST Yasin. tungsten carbide ball AS 3
carbide ball into the specimen under certain arbitrarily fixed 15N Diamond brale 15 3
conditions. A minor load of 10 kef is first applied which causes ON Damen rae t :
an initial penetration, sets the penetrator on the material and "
holds it in position. A major load which depends on the scale 18.2 Reporting Hardness—In recording hardness values, the
being used is applied increasing the depth of indentation. The = hardness number shall always precede the scale symbol, for
major load is removed and, with the minor load still acting, the example: 96 HRBW, 40 HRC, 75 HRISN, 56 HR30TS, or 77
Rockwell number, which is proportional to the difference in HR30TW. The suffix W indicates use of a tungsten carbide ball.
penetration between the major and minor loads is determined; The suffix S indicates use of a hardened steel ball as permitted
this is usually done by the machine and shows on a dial, digital in 18.1.2.
599
